Time [msec],x [m],y [m],z [m],Red,Green,Blue
0,-2.387,-7.717,0,255,255,255
250,-2.388,-7.7148,0.0125,255,255,255
500,-2.3916,-7.7062,0.0602,255,255,255
750,-2.398,-7.6914,0.1427,255,255,255
1000,-2.407,-7.6704,0.2591,255,255,255
1250,-2.4186,-7.6436,0.4086,255,255,255
1500,-2.4326,-7.6109,0.5903,255,255,255
1750,-2.449,-7.5726,0.8034,255,255,255
2000,-2.4678,-7.5288,1.0469,255,255,255
2250,-2.4889,-7.4796,1.32,255,255,255
2500,-2.5123,-7.4253,1.6219,255,255,255
2750,-2.5377,-7.366,1.9516,255,255,255
3000,-2.5653,-7.3017,2.3083,255,255,255
3250,-2.5948,-7.2328,2.6912,255,255,255
3500,-2.6264,-7.1593,3.0993,255,255,255
3750,-2.6598,-7.0814,3.5318,255,255,255
4000,-2.695,-6.9992,3.9879,255,255,255
4250,-2.732,-6.9129,4.4666,255,255,255
4500,-2.7706,-6.8227,4.9671,255,255,255
4750,-2.8109,-6.7287,5.4885,255,255,255
5000,-2.8528,-6.631,6.03,255,255,255
5250,-2.8961,-6.5298,6.5907,255,255,255
5500,-2.9408,-6.4253,7.1697,255,255,255
5750,-2.9869,-6.3177,7.7662,255,255,255
6000,-3.0342,-6.207,8.3792,255,255,255
6250,-3.0828,-6.0934,9.008,255,255,255
6500,-3.1326,-5.9771,9.6516,255,255,255
6750,-3.1834,-5.8582,10.3092,255,255,255
7000,-3.2352,-5.737,10.9799,255,255,255
7250,-3.288,-5.6135,11.663,255,255,255
7500,-3.3416,-5.488,12.3574,255,255,255
7750,-3.3961,-5.3607,13.0624,255,255,255
8000,-3.4513,-5.2316,13.7771,255,255,255
8250,-3.5073,-5.101,14.5006,255,255,255
8500,-3.5638,-4.9689,15.232,255,255,255
8750,-3.6209,-4.8356,15.9705,255,255,255
9000,-3.6784,-4.7012,16.7153,255,255,255
9250,-3.7364,-4.5658,17.4654,255,255,255
9500,-3.7947,-4.4297,18.2199,255,255,255
9750,-3.8533,-4.2929,18.9781,255,255,255
10000,-3.9122,-4.1557,19.7391,255,255,255
10250,-3.9711,-4.0181,20.5019,255,255,255
10500,-4.0302,-3.8803,21.2658,255,255,255
10750,-4.0892,-3.7426,22.0298,255,255,255
11000,-4.1483,-3.6049,22.7931,255,255,255
11250,-4.2071,-3.4676,23.5548,255,255,255
11500,-4.2658,-3.3307,24.314,255,255,255
11750,-4.3243,-3.1945,25.07,255,255,255
12000,-4.3824,-3.059,25.8217,255,255,255
12250,-4.4401,-2.9244,26.5685,255,255,255
12500,-4.4974,-2.7909,27.3093,255,255,255
12750,-4.5542,-2.6586,28.0433,255,255,255
13000,-4.6103,-2.5277,28.7696,255,255,255
13250,-4.6658,-2.3984,29.4875,255,255,255
13500,-4.7206,-2.2707,30.196,255,255,255
13750,-4.7746,-2.1449,30.8942,255,255,255
14000,-4.8277,-2.0211,31.5813,255,255,255
14250,-4.8799,-1.8994,32.2564,255,255,255
14500,-4.9311,-1.7801,32.9187,255,255,255
14750,-4.9813,-1.6633,33.5673,255,255,255
15000,-5.0303,-1.549,34.2012,255,255,255
15250,-5.0781,-1.4376,34.8198,255,255,255
15500,-5.1247,-1.3291,35.422,255,255,255
15750,-5.1699,-1.2237,36.007,255,255,255
16000,-5.2138,-1.1215,36.574,255,255,255
16250,-5.2562,-1.0228,37.1221,255,255,255
16500,-5.297,-0.9276,37.6504,255,255,255
16750,-5.3363,-0.8361,38.158,255,255,255
17000,-5.3739,-0.7485,38.6442,255,255,255
17250,-5.4097,-0.6649,39.1079,255,255,255
17500,-5.4438,-0.5855,39.5484,255,255,255
17750,-5.476,-0.5104,39.9648,255,255,255
18000,-5.5063,-0.4398,40.3562,255,255,255
18250,-5.5346,-0.3739,40.7217,255,255,255
18500,-5.5608,-0.3128,41.0606,255,255,255
18750,-5.5848,-0.2566,41.3718,255,255,255
19000,-5.6067,-0.2055,41.6547,255,255,255
19250,-5.6263,-0.1598,41.9082,255,255,255
19500,-5.6436,-0.1194,42.1315,255,255,255
19750,-5.6585,-0.0846,42.3237,255,255,255
20000,-5.6709,-0.0556,42.4841,255,255,255
20250,-5.6808,-0.0324,42.6117,255,255,255
20500,-5.688,-0.0153,42.7056,255,255,255
20750,-5.6933,-0.0043,42.7692,255,255,255
21000,-5.698,0.0001,42.8119,255,255,255
21250,-5.7031,-0.0026,42.8374,255,255,255
21500,-5.7092,-0.0128,42.8493,255,255,255
21750,-5.7172,-0.031,42.8513,255,255,255
22000,-5.7277,-0.0578,42.8469,255,255,255
22250,-5.7416,-0.0937,42.8397,255,255,255
22500,-5.7595,-0.1391,42.8335,255,255,255
22750,-5.7823,-0.1947,42.8317,255,255,255
23000,-5.8106,-0.2608,42.8379,255,255,255
23250,-5.8445,-0.3374,42.8518,255,255,255
23500,-5.8827,-0.4235,42.8676,255,255,255
23750,-5.925,-0.5189,42.885,255,255,255
24000,-5.9713,-0.6235,42.9039,255,255,255
24250,-6.0217,-0.7371,42.9243,255,255,255
24500,-6.0759,-0.8597,42.946,255,255,255
24750,-6.134,-0.9911,42.9691,255,255,255
25000,-6.1958,-1.1311,42.9933,255,255,255
25250,-6.2612,-1.2797,43.0187,255,255,255
25500,-6.3301,-1.4368,43.0452,255,255,255
25750,-6.4026,-1.6021,43.0726,255,255,255
26000,-6.4784,-1.7756,43.1009,255,255,255
26250,-6.5575,-1.9571,43.1301,255,255,255
26500,-6.6399,-2.1466,43.16,255,255,255
26750,-6.7253,-2.3439,43.1906,255,255,255
27000,-6.8138,-2.5488,43.2217,255,255,255
27250,-6.9052,-2.7613,43.2532,255,255,255
27500,-6.9992,-2.9812,43.2848,255,255,255
27750,-7.0957,-3.2084,43.3163,255,255,255
28000,-7.1948,-3.4428,43.3478,255,255,255
28250,-7.2964,-3.6842,43.3791,255,255,255
28500,-7.4005,-3.9325,43.4102,255,255,255
28750,-7.507,-4.1877,43.441,255,255,255
29000,-7.6159,-4.4494,43.4715,255,255,255
29250,-7.7272,-4.7177,43.5016,255,255,255
29500,-7.8408,-4.9924,43.5312,255,255,255
29750,-7.9567,-5.2734,43.5603,255,255,255
30000,-8.0749,-5.5606,43.5888,255,255,255
30250,-8.1954,-5.8537,43.6167,255,255,255
30500,-8.318,-6.1528,43.6438,255,255,255
30750,-8.4428,-6.4576,43.6702,255,255,255
31000,-8.5698,-6.7681,43.6957,255,255,255
31250,-8.6989,-7.0841,43.7204,255,255,255
31500,-8.8301,-7.4054,43.744,255,255,255
31750,-8.9633,-7.7321,43.7666,255,255,255
32000,-9.0985,-8.0638,43.7882,255,255,255
32250,-9.2357,-8.4006,43.8085,255,255,255
32500,-9.3748,-8.7422,43.8277,255,255,255
32750,-9.5159,-9.0886,43.8456,255,255,255
33000,-9.6588,-9.4397,43.8621,255,255,255
33250,-9.8036,-9.7952,43.8772,255,255,255
33500,-9.9502,-10.1551,43.8909,255,255,255
33750,-10.0986,-10.5192,43.903,255,255,255
34000,-10.2487,-10.8875,43.9135,255,255,255
34250,-10.4005,-11.2597,43.9224,255,255,255
34500,-10.5541,-11.6358,43.9295,255,255,255
34750,-10.7092,-12.0156,43.9349,255,255,255
35000,-10.866,-12.3991,43.9384,255,255,255
35250,-11.0244,-12.786,43.94,255,255,255
35500,-11.1843,-13.1763,43.9396,255,255,255
35750,-11.3457,-13.5698,43.9372,255,255,255
36000,-11.5087,-13.9664,43.9326,255,255,255
36250,-11.673,-14.3659,43.926,255,255,255
36500,-11.8388,-14.7683,43.9171,255,255,255
36750,-12.006,-15.1735,43.9059,255,255,255
37000,-12.1745,-15.5812,43.8923,255,255,255
37250,-12.3444,-15.9914,43.8763,255,255,255
37500,-12.5155,-16.4039,43.8579,255,255,255
37750,-12.6879,-16.8186,43.8369,255,255,255
38000,-12.8615,-17.2354,43.8133,255,255,255
38250,-13.0363,-17.6542,43.787,255,255,255
38500,-13.2123,-18.0748,43.7581,255,255,255
38750,-13.3894,-18.497,43.7263,255,255,255
39000,-13.5675,-18.9209,43.6916,255,255,255
39250,-13.7467,-19.3462,43.6541,255,255,255
39500,-13.927,-19.7728,43.6135,255,255,255
39750,-14.1082,-20.2006,43.57,255,255,255
40000,-14.2904,-20.6295,43.5233,255,255,255
40250,-14.4735,-21.0593,43.4734,255,255,255
40500,-14.6575,-21.4899,43.4203,255,255,255
40750,-14.8424,-21.9212,43.3639,255,255,255
41000,-15.0281,-22.3531,43.3041,255,255,255
41250,-15.2146,-22.7853,43.241,255,255,255
41500,-15.4021,-23.2179,43.1744,255,255,255
41750,-15.5911,-23.6507,43.1048,255,255,255
42000,-15.7816,-24.0836,43.0323,255,255,255
42250,-15.9733,-24.5165,42.9568,255,255,255
42500,-16.1664,-24.9491,42.8786,255,255,255
42750,-16.3607,-25.3815,42.7977,255,255,255
43000,-16.5561,-25.8134,42.7142,255,255,255
43250,-16.7526,-26.2448,42.6281,255,255,255
43500,-16.9501,-26.6755,42.5396,255,255,255
43750,-17.1486,-27.1054,42.4488,255,255,255
44000,-17.3479,-27.5344,42.3557,255,255,255
44250,-17.548,-27.9623,42.2605,255,255,255
44500,-17.7488,-28.389,42.1632,255,255,255
44750,-17.9502,-28.8143,42.0639,255,255,255
45000,-18.1523,-29.2383,41.9627,255,255,255
45250,-18.3549,-29.6607,41.8597,255,255,255
45500,-18.5578,-30.0813,41.755,255,255,255
45750,-18.7612,-30.5002,41.6487,255,255,255
46000,-18.9649,-30.917,41.5409,255,255,255
46250,-19.1688,-31.3318,41.4316,255,255,255
46500,-19.3728,-31.7444,41.3209,255,255,255
46750,-19.577,-32.1547,41.209,255,255,255
47000,-19.7811,-32.5625,41.0959,255,255,255
47250,-19.9852,-32.9677,40.9818,255,255,255
47500,-20.1892,-33.3702,40.8666,255,255,255
47750,-20.393,-33.7698,40.7506,255,255,255
48000,-20.5965,-34.1665,40.6337,255,255,255
48250,-20.7997,-34.56,40.5161,255,255,255
48500,-21.0025,-34.9504,40.3978,255,255,255
48750,-21.2048,-35.3374,40.279,255,255,255
49000,-21.4065,-35.7209,40.1598,255,255,255
49250,-21.6077,-36.1008,40.0402,255,255,255
49500,-21.8081,-36.4769,39.9203,255,255,255
49750,-22.0078,-36.8492,39.8002,255,255,255
50000,-22.2067,-37.2175,39.6801,255,255,255
50250,-22.4047,-37.5817,39.5599,255,255,255
50500,-22.6017,-37.9416,39.4398,255,255,255
50750,-22.7976,-38.2972,39.3199,255,255,255
51000,-22.9925,-38.6483,39.2002,255,255,255
51250,-23.1862,-38.9947,39.0809,255,255,255
51500,-23.3786,-39.3364,38.9621,255,255,255
51750,-23.5697,-39.6732,38.8437,255,255,255
52000,-23.7594,-40.005,38.726,255,255,255
52250,-23.9477,-40.3316,38.609,255,255,255
52500,-24.1344,-40.653,38.4928,255,255,255
52750,-24.3195,-40.969,38.3775,255,255,255
53000,-24.5029,-41.2795,38.2632,255,255,255
53250,-24.6847,-41.5844,38.1499,255,255,255
53500,-24.8644,-41.8834,38.0379,255,255,255
53750,-25.0416,-42.1766,37.9273,255,255,255
54000,-25.2163,-42.4637,37.8183,255,255,255
54250,-25.3882,-42.7447,37.7109,255,255,255
54500,-25.5573,-43.0194,37.6052,255,255,255
54750,-25.7233,-43.2877,37.5014,255,255,255
55000,-25.8862,-43.5495,37.3995,255,255,255
55250,-26.0457,-43.8046,37.2996,255,255,255
55500,-26.2019,-44.0529,37.2019,255,255,255
55750,-26.3544,-44.2943,37.1064,255,255,255
56000,-26.5032,-44.5287,37.0131,255,255,255
56250,-26.6482,-44.7559,36.9223,255,255,255
56500,-26.7892,-44.9758,36.834,255,255,255
56750,-26.926,-45.1882,36.7482,255,255,255
57000,-27.0585,-45.3932,36.6652,255,255,255
57250,-27.1866,-45.5904,36.5849,255,255,255
57500,-27.3101,-45.7799,36.5075,255,255,255
57750,-27.4289,-45.9614,36.4331,255,255,255
58000,-27.5429,-46.1348,36.3617,255,255,255
58250,-27.6518,-46.3001,36.2935,255,255,255
58500,-27.7557,-46.4571,36.2285,255,255,255
58750,-27.8542,-46.6056,36.1669,255,255,255
59000,-27.9474,-46.7456,36.1088,255,255,255
59250,-28.0349,-46.8768,36.0542,255,255,255
59500,-28.1168,-46.9993,36.0032,255,255,255
59750,-28.1937,-47.1121,35.9567,255,255,255
60000,-28.2668,-47.2139,35.916,255,255,255
60250,-28.3354,-47.3052,35.8805,255,255,255
60500,-28.3989,-47.3864,35.8497,255,255,255
60750,-28.4564,-47.458,35.8231,255,255,255
61000,-28.5074,-47.5203,35.8002,255,255,255
61250,-28.5511,-47.5737,35.7804,255,255,255
61500,-28.5867,-47.6188,35.7633,255,255,255
61750,-28.6137,-47.6559,35.7482,255,255,255
62000,-28.6313,-47.6855,35.7347,255,255,255
62250,-28.6388,-47.708,35.7223,255,255,255
62500,-28.6356,-47.7237,35.7104,255,255,255
62750,-28.6208,-47.7332,35.6986,255,255,255
63000,-28.5938,-47.7369,35.6862,255,255,255
63250,-28.5509,-47.737,35.6704,255,255,255
63500,-28.4876,-47.737,35.6471,255,255,255
63750,-28.4055,-47.737,35.6169,255,255,255
64000,-28.3067,-47.737,35.5805,255,255,255
64250,-28.1933,-47.737,35.5386,255,255,255
64500,-28.0671,-47.737,35.4921,255,255,255
64750,-27.9301,-47.737,35.4416,255,255,255
65000,-27.7844,-47.737,35.3878,255,255,255
65250,-27.6319,-47.737,35.3315,255,255,255
65500,-27.4746,-47.737,35.2735,255,255,255
65750,-27.3144,-47.737,35.2144,255,255,255
66000,-27.1535,-47.737,35.155,255,255,255
66250,-26.9937,-47.737,35.096,255,255,255
66500,-26.837,-47.737,35.0381,255,255,255
66750,-26.6854,-47.737,34.9821,255,255,255
67000,-26.5409,-47.737,34.9288,255,255,255
67250,-26.4055,-47.737,34.8788,255,255,255
67500,-26.2812,-47.737,34.8329,255,255,255
67750,-26.1699,-47.737,34.7918,255,255,255
68000,-26.0736,-47.737,34.7562,255,255,255
68250,-25.9943,-47.737,34.727,255,255,255
68500,-25.934,-47.737,34.7047,255,255,255
68750,-25.8947,-47.737,34.6902,255,255,255
69000,-25.8784,-47.737,34.6841,255,255,255
69250,-25.878,-47.737,34.684,255,255,255
69500,-25.878,-47.737,34.684,255,255,255
69750,-25.8819,-47.732,34.6889,255,255,255
70000,-25.8975,-47.712,34.7076,255,255,255
70250,-25.926,-47.6754,34.7402,255,255,255
70500,-25.9684,-47.6206,34.7864,255,255,255
70750,-26.0259,-47.5462,34.846,255,255,255
71000,-26.0994,-47.4506,34.9188,255,255,255
71250,-26.19,-47.3325,35.0046,255,255,255
71500,-26.2989,-47.1903,35.1032,255,255,255
71750,-26.4271,-47.0248,35.2137,255,255,255
72000,-26.5758,-46.8406,35.3336,255,255,255
72250,-26.7454,-46.6403,35.4612,255,255,255
72500,-26.9366,-46.4263,35.5945,255,255,255
72750,-27.1498,-46.2012,35.7317,255,255,255
73000,-27.3855,-45.9675,35.8708,255,255,255
73250,-27.6442,-45.7275,36.01,255,255,255
73500,-27.9265,-45.4839,36.1475,255,255,255
73750,-28.2328,-45.2391,36.2813,255,255,255
74000,-28.5637,-44.9955,36.4096,255,255,255
74250,-28.9197,-44.7557,36.5305,255,255,255
74500,-29.3011,-44.5228,36.6418,255,255,255
74750,-29.7064,-44.3002,36.741,255,255,255
75000,-30.1333,-44.0898,36.8266,255,255,255
75250,-30.5792,-43.8939,36.8968,255,255,255
75500,-31.0419,-43.7143,36.95,255,255,255
75750,-31.5187,-43.5533,36.9846,255,255,255
76000,-32.0074,-43.4127,36.999,255,255,255
76250,-32.5055,-43.2946,36.9916,255,255,255
76500,-33.0106,-43.2011,36.9606,255,255,255
76750,-33.5195,-43.1341,36.9046,255,255,255
77000,-34.0279,-43.0931,36.8232,255,255,255
77250,-34.5325,-43.0767,36.7165,255,255,255
77500,-35.0303,-43.0837,36.5846,255,255,255
77750,-35.5179,-43.1124,36.4277,255,255,255
78000,-35.9923,-43.1617,36.2459,255,255,255
78250,-36.4503,-43.23,36.0394,255,255,255
78500,-36.8885,-43.3159,35.8082,255,255,255
78750,-37.3022,-43.4161,35.5526,255,255,255
79000,-37.6875,-43.525,35.2736,255,255,255
79250,-38.0458,-43.6404,34.9733,255,255,255
79500,-38.3784,-43.7602,34.6538,255,255,255
79750,-38.6868,-43.882,34.3174,255,255,255
80000,-38.9724,-44.0039,33.9661,255,255,255
80250,-39.2366,-44.1235,33.602,255,255,255
80500,-39.4808,-44.2387,33.2272,255,255,255
80750,-39.7064,-44.3474,32.8439,255,255,255
81000,-39.9149,-44.4473,32.4542,255,255,255
81250,-40.1076,-44.5364,32.0603,255,255,255
81500,-40.2861,-44.6124,31.6641,255,255,255
81750,-40.4516,-44.6731,31.2679,255,255,255
82000,-40.6057,-44.7164,30.8738,255,255,255
82250,-40.7497,-44.7401,30.4839,255,255,255
82500,-40.889,-44.7442,30.1012,255,255,255
82750,-41.0315,-44.7328,29.7287,255,255,255
83000,-41.1777,-44.7083,29.367,255,255,255
83250,-41.3278,-44.673,29.017,255,255,255
83500,-41.4818,-44.6289,28.6792,255,255,255
83750,-41.64,-44.5785,28.3543,255,255,255
84000,-41.8026,-44.5239,28.0432,255,255,255
84250,-41.9698,-44.4673,27.7464,255,255,255
84500,-42.1418,-44.4109,27.4647,255,255,255
84750,-42.3187,-44.3571,27.1988,255,255,255
85000,-42.5008,-44.308,26.9493,255,255,255
85250,-42.6881,-44.2659,26.7169,255,255,255
85500,-42.881,-44.233,26.5024,255,255,255
85750,-43.0796,-44.2116,26.3065,255,255,255
86000,-43.2841,-44.2038,26.1298,255,255,255
86250,-43.4922,-44.2118,25.972,255,255,255
86500,-43.6983,-44.2361,25.8316,255,255,255
86750,-43.9,-44.2765,25.7084,255,255,255
87000,-44.095,-44.3326,25.6022,255,255,255
87250,-44.2812,-44.404,25.5129,255,255,255
87500,-44.4561,-44.4905,25.4404,255,255,255
87750,-44.6175,-44.5916,25.3845,255,255,255
88000,-44.7632,-44.7072,25.345,255,255,255
88250,-44.8927,-44.8345,25.3196,255,255,255
88500,-45.0087,-44.9683,25.303,255,255,255
88750,-45.1124,-45.1073,25.2938,255,255,255
89000,-45.2051,-45.2499,25.2906,255,255,255
89250,-45.2878,-45.395,25.2918,255,255,255
89500,-45.3615,-45.5411,25.2962,255,255,255
89750,-45.4275,-45.6868,25.3022,255,255,255
90000,-45.4869,-45.8309,25.3084,255,255,255
90250,-45.5407,-45.9719,25.3135,255,255,255
90500,-45.5901,-46.1086,25.3159,255,255,255
90750,-45.6354,-46.2402,25.316,255,255,255
91000,-45.6758,-46.3673,25.316,255,255,255
91250,-45.7116,-46.4899,25.316,255,255,255
91500,-45.7431,-46.6078,25.316,255,255,255
91750,-45.7705,-46.7207,25.316,255,255,255
92000,-45.7941,-46.8287,25.316,255,255,255
92250,-45.8142,-46.9314,25.316,255,255,255
92500,-45.831,-47.0287,25.316,255,255,255
92750,-45.8448,-47.1205,25.316,255,255,255
93000,-45.8559,-47.2066,25.316,255,255,255
93250,-45.8645,-47.2869,25.316,255,255,255
93500,-45.871,-47.3611,25.316,255,255,255
93750,-45.8755,-47.4291,25.316,255,255,255
94000,-45.8784,-47.4908,25.316,255,255,255
94250,-45.8799,-47.546,25.316,255,255,255
94500,-45.8804,-47.5946,25.316,255,255,255
94750,-45.88,-47.6363,25.316,255,255,255
95000,-45.879,-47.671,25.316,255,255,255
95250,-45.8778,-47.6986,25.316,255,255,255
95500,-45.8765,-47.7189,25.316,255,255,255
95750,-45.8755,-47.7317,25.316,255,255,255
96000,-45.875,-47.7369,25.316,255,255,255
96250,-45.875,-47.737,25.316,255,255,255
96500,-45.875,-47.737,25.316,255,255,255
96750,-45.875,-47.737,25.316,255,255,255
97000,-45.875,-47.737,25.316,255,255,255
97250,-45.875,-47.737,25.316,255,255,255
97500,-45.875,-47.737,25.316,255,255,255
97750,-45.875,-47.737,25.316,255,255,255
98000,-45.875,-47.737,25.316,255,255,255
98250,-45.875,-47.737,25.316,255,255,255
98500,-45.875,-47.737,25.316,255,255,255
98750,-45.875,-47.737,25.316,255,255,255
99000,-45.875,-47.737,25.316,255,255,255
99250,-45.875,-47.737,25.316,255,255,255
99500,-45.875,-47.737,25.316,255,255,255
99750,-45.875,-47.737,25.316,255,255,255
100000,-45.875,-47.737,25.316,255,255,255
100250,-45.875,-47.737,25.316,255,255,255
100500,-45.875,-47.737,25.316,255,255,255
100750,-45.875,-47.737,25.316,255,255,255
101000,-45.875,-47.737,25.316,255,255,255
101250,-45.875,-47.737,25.316,255,255,255
101500,-45.875,-47.737,25.316,255,255,255
101750,-45.875,-47.737,25.316,255,255,255
102000,-45.875,-47.737,25.316,255,255,255
102250,-45.875,-47.737,25.316,255,255,255
102500,-45.875,-47.737,25.316,255,255,255
102750,-45.875,-47.737,25.316,255,255,255
103000,-45.875,-47.737,25.316,255,255,255
103250,-45.875,-47.737,25.316,255,255,255
103500,-45.875,-47.737,25.316,255,255,255
103750,-45.875,-47.737,25.316,255,255,255
104000,-45.875,-47.737,25.316,255,255,255
104250,-45.875,-47.737,25.316,255,255,255
104500,-45.875,-47.737,25.316,255,255,255
104750,-45.875,-47.737,25.316,255,255,255
105000,-45.875,-47.737,25.316,255,255,255
105250,-45.875,-47.737,25.316,255,255,255
105500,-45.875,-47.737,25.316,255,255,255
105750,-45.875,-47.737,25.316,255,255,255
106000,-45.875,-47.737,25.316,255,255,255
106250,-45.875,-47.737,25.316,255,255,255
106500,-45.875,-47.737,25.316,255,255,255
106750,-45.875,-47.737,25.316,255,255,255
107000,-45.875,-47.737,25.316,255,255,255
107250,-45.875,-47.737,25.316,255,255,255
107500,-45.875,-47.737,25.316,255,255,255
107750,-45.875,-47.737,25.316,255,255,255
108000,-45.875,-47.737,25.316,255,255,255
108250,-45.875,-47.737,25.316,255,255,255
108500,-45.875,-47.737,25.316,255,255,255
108750,-45.875,-47.737,25.316,255,255,255
109000,-45.875,-47.737,25.316,255,255,255
109250,-45.875,-47.737,25.316,255,255,255
109500,-45.875,-47.737,25.316,255,255,255
109750,-45.875,-47.737,25.316,255,255,255
110000,-45.875,-47.737,25.316,255,255,255
110250,-45.875,-47.737,25.316,255,255,255
110500,-45.875,-47.737,25.316,255,255,255
110750,-45.875,-47.737,25.316,255,255,255
111000,-45.875,-47.737,25.316,255,255,255
111250,-45.875,-47.737,25.316,255,255,255
111500,-45.875,-47.737,25.316,255,255,255
111750,-45.875,-47.737,25.316,255,255,255
112000,-45.875,-47.737,25.316,255,255,255
112250,-45.875,-47.737,25.316,255,255,255
112500,-45.875,-47.737,25.316,255,255,255
112750,-45.875,-47.737,25.316,255,255,255
113000,-45.875,-47.737,25.316,255,255,255
113250,-45.875,-47.737,25.316,255,255,255
113500,-45.875,-47.737,25.316,255,255,255
113750,-45.875,-47.737,25.316,255,255,255
114000,-45.875,-47.737,25.316,255,255,255
114250,-45.875,-47.737,25.316,255,255,255
